# k Energy [eV] 
# Emax = 1.224744871391589
# Emin = -1.224744871391589
# num_wann = 2
# ef = ? (no shift) 

0.000000000000000000   -1.224744871391589   
0.025803635758437724   -1.2242076970918163  
0.051607271516875450   -1.222596881318471   
0.077410907275313180   -1.2199145463866692  
0.103214543033750900   -1.2161642326398274  
0.129018178792188630   -1.2113509032742888  
0.154821814550626350   -1.2054809512910194  
0.180625450309064070   -1.1985622087779506  
0.206429086067501800   -1.190603958793985   
0.232232721825939510   -1.1816169502005898  
0.258036357584377260   -1.171613415871449   
0.283839993342815000   -1.1606070948073655  
0.309643629101252760   -1.1486132587955535  
0.335447264859690500   -1.1356487443831944  
0.361250900618128260   -1.1217319910889856  
0.387054536376566000   -1.1068830869585924  
0.412858172135003750   -1.0911238227867013  
0.438661807893441500   -1.074477756587424   
0.464465443651879250   -1.0569702902053184  
0.490269079410317000   -1.0386287603324806  
0.516072715168754700   -1.0194825466464013  
0.541876350927192400   -0.99956320032464    
0.567679986685630100   -0.9789045968447674  
0.593483622444067800   -0.9575431177634786  
0.619287258202505500   -0.9355178671122263  
0.645090893960943200   -0.912870929175277   
0.670894529719380900   -0.8896476757573514  
0.696698165477818600   -0.8658971326263091  
0.722501801236256300   -0.8416724166460784  
0.748305436994694000   -0.8170312571887506  
0.774109072753131700   -0.7920366176825636  
0.799912708511569400   -0.7667574354884872  
0.825716344270007100   -0.7412695004449809  
0.851519980028444800   -0.7156564939029919  
0.877323615786882400   -0.6900112100640122  
0.903127251545320100   -0.6644369785552914  
0.928930887303757800   -0.6390492992204958  
0.954734523062195500   -0.6139776836722495  
0.980538158820633200   -0.5893676682561793  
1.006341794579071000   -0.5653829128559459  
1.032145430337508600   -0.5422072209189966  
1.057949066095946300   -0.5200461995489662  
1.083752701854384000   -0.49912811979566707 
1.109556337612821700   -0.47970334411590987 
1.135359973371259400   -0.46204149460970034 
1.161163609129697000   -0.44642542020278253 
1.186967244888134800   -0.43314111547421347 
1.212770880646572500   -0.42246321281370075 
1.238574516405010200   -0.4146366270085349  
1.264378152163447800   -0.4098562931660546  
1.290181787921885500   -0.408248290463863   
1.290181787921885500   -0.408248290463863   
1.310089953143462200   -0.4080692192709334  
1.329998118365039000   -0.4075320842386882  
1.349906283586615600   -0.406637120972305   
1.369814448808192300   -0.40538472203225107 
1.389722614029769000   -0.4037754367620939  
1.409630779251345600   -0.40180997104754035 
1.429538944472922300   -0.39948918700681196 
1.449447109694499000   -0.39681410261249167 
1.469355274916075600   -0.39378589124500735 
1.489263440137652300   -0.39040588117794767 
1.509171605359229000   -0.386675554995439   
1.529079770580805700   -0.38259654894183304 
1.548987935802382400   -0.3781706522039974  
1.568896101023959000   -0.3733998061265186  
1.588804266245535700   -0.368286103360164   
1.608712431467112400   -0.36283178694397666 
1.628620596688689000   -0.35703924932140335 
1.648528761910265800   -0.35091103129089035 
1.668436927131842400   -0.3444498208914057  
1.688345092353419100   -0.3376584522233754  
1.708253257574995800   -0.330539904205554   
1.728161422796572500   -0.3230972992683728  
1.748069588018149200   -0.315333901984337   
1.767977753239725800   -0.30725311763607843 
1.787885918461302500   -0.2988584907226846  
1.807794083682879200   -0.29015370340496466 
1.827702248904455900   -0.28114257389033204 
1.847610414126032600   -0.2718290547580127  
1.867518579347609200   -0.2622172312253126  
1.887426744569186000   -0.252311319355707   
1.907334909790762600   -0.24211566420953523 
1.927243075012339300   -0.23163473793811398 
1.947151240233916000   -0.22087313782210385 
1.967059405455492600   -0.2098355842549898  
1.986967570677069300   -0.19852691867256103 
2.006875735898646000   -0.18695210142929694 
2.026783901120223000   -0.17511620962259156 
2.046692066341800000   -0.1630244348657713  
2.066600231563376700   -0.1506820810108812  
2.086508396784953600   -0.13809456182224092 
2.106416562006530500   -0.12526739860178768 
2.126324727228107400   -0.11220621776725206 
2.146232892449684300   -0.09891674838422408 
2.166141057671261000   -0.08540481965319563 
2.186049222892838000   -0.07167635835268214 
2.205957388114415000   -0.057737386239539924 
2.225865553335992000   -0.04359401740762486 
2.245773718557569000   -0.029252455605949513 
2.265681883779145700   -0.014718991517512995 
2.285590049000722600   -1.2993980021782884e-16 
2.285590049000722600   -1.2993980021782884e-16 
2.319217893432007000   -0.029968661831124344 
2.352845737863291700   -0.06060095467115173 
2.386473582294576000   -0.09184313906951863 
2.420101426725860700   -0.12364040561862355 
2.453729271157145200   -0.15593697110815624 
2.487357115588429800   -0.18867617638780124 
2.520984960019714300   -0.22180058576664172 
2.554612804450999000   -0.2552520877748764  
2.588240648882283300   -0.2889719971110867  
2.621868493313568000   -0.3229011575961947  
2.655496337744852400   -0.356980045953503   
2.689124182176137000   -0.3911488762327494  
2.722752026607421400   -0.4253477046949769  
2.756379871038706000   -0.4595165349742232  
2.790007715469990500   -0.4935954233315315  
2.823635559901275000   -0.5275245838166395  
2.857263404332559500   -0.5612444931528502  
2.890891248763844000   -0.5946959951610848  
2.924519093195128600   -0.6278204045399249  
2.958146937626413000   -0.66055960981957    
2.991774782057697600   -0.6928561753091027  
3.025402626488982000   -0.7246534418582078  
3.059030470920266700   -0.7558956262565744  
3.092658315351551200   -0.7865279190966019  
3.126286159782835700   -0.8164965809277261  
3.159914004214120300   -0.8457490365336753  
3.193541848645405000   -0.8742339671672661  
3.227169693076689300   -0.9019014005809216  
3.260797537507974000   -0.9287027986949781  
3.294425381939258400   -0.954591142749967   
3.328053226370543000   -0.9795210157934974  
3.361681070801827400   -1.003448682357023   
3.395308915233112000   -1.0263321651827157  
3.428936759664396500   -1.04813131886584    
3.462564604095681000   -1.0688079002834332  
3.496192448526965500   -1.088325635685739   
3.529820292958250000   -1.1066502843326906  
3.563448137389534600   -1.1237496985638042  
3.597075981820819000   -1.1395938801960988  
3.630703826252103600   -1.1541550331511017  
3.664331670683388000   -1.1674076122186166  
3.697959515114672700   -1.1793283678717026  
3.731587359545957000   -1.1898963870542447  
3.765215203977241700   -1.199093129869559   
3.798843048408526300   -1.206902462105674   
3.832470892839811000   -1.2133106835402176  
3.866098737271095300   -1.218306551975266   
3.899726581702380000   -1.2218813029599769  
3.933354426133664400   -1.224028665166414   
3.966982270564949000   -1.224744871391589   

0.000000000000000000   1.224744871391589    
0.025803635758437724   1.2242076970918163   
0.051607271516875450   1.222596881318471    
0.077410907275313180   1.2199145463866692   
0.103214543033750900   1.2161642326398274   
0.129018178792188630   1.2113509032742888   
0.154821814550626350   1.2054809512910194   
0.180625450309064070   1.1985622087779506   
0.206429086067501800   1.190603958793985    
0.232232721825939510   1.1816169502005898   
0.258036357584377260   1.171613415871449    
0.283839993342815000   1.1606070948073655   
0.309643629101252760   1.1486132587955535   
0.335447264859690500   1.1356487443831944   
0.361250900618128260   1.1217319910889856   
0.387054536376566000   1.1068830869585924   
0.412858172135003750   1.0911238227867013   
0.438661807893441500   1.074477756587424    
0.464465443651879250   1.0569702902053184   
0.490269079410317000   1.0386287603324806   
0.516072715168754700   1.0194825466464013   
0.541876350927192400   0.99956320032464     
0.567679986685630100   0.9789045968447674   
0.593483622444067800   0.9575431177634786   
0.619287258202505500   0.9355178671122263   
0.645090893960943200   0.912870929175277    
0.670894529719380900   0.8896476757573514   
0.696698165477818600   0.8658971326263091   
0.722501801236256300   0.8416724166460784   
0.748305436994694000   0.8170312571887506   
0.774109072753131700   0.7920366176825636   
0.799912708511569400   0.7667574354884872   
0.825716344270007100   0.7412695004449809   
0.851519980028444800   0.7156564939029919   
0.877323615786882400   0.6900112100640122   
0.903127251545320100   0.6644369785552914   
0.928930887303757800   0.6390492992204958   
0.954734523062195500   0.6139776836722495   
0.980538158820633200   0.5893676682561793   
1.006341794579071000   0.5653829128559459   
1.032145430337508600   0.5422072209189966   
1.057949066095946300   0.5200461995489662   
1.083752701854384000   0.49912811979566707  
1.109556337612821700   0.47970334411590987  
1.135359973371259400   0.46204149460970034  
1.161163609129697000   0.44642542020278253  
1.186967244888134800   0.43314111547421347  
1.212770880646572500   0.42246321281370075  
1.238574516405010200   0.4146366270085349   
1.264378152163447800   0.4098562931660546   
1.290181787921885500   0.408248290463863    
1.290181787921885500   0.408248290463863    
1.310089953143462200   0.4080692192709334   
1.329998118365039000   0.4075320842386882   
1.349906283586615600   0.406637120972305    
1.369814448808192300   0.40538472203225107  
1.389722614029769000   0.4037754367620939   
1.409630779251345600   0.40180997104754035  
1.429538944472922300   0.39948918700681196  
1.449447109694499000   0.39681410261249167  
1.469355274916075600   0.39378589124500735  
1.489263440137652300   0.39040588117794767  
1.509171605359229000   0.386675554995439    
1.529079770580805700   0.38259654894183304  
1.548987935802382400   0.3781706522039974   
1.568896101023959000   0.3733998061265186   
1.588804266245535700   0.368286103360164    
1.608712431467112400   0.36283178694397666  
1.628620596688689000   0.35703924932140335  
1.648528761910265800   0.35091103129089035  
1.668436927131842400   0.3444498208914057   
1.688345092353419100   0.3376584522233754   
1.708253257574995800   0.330539904205554    
1.728161422796572500   0.3230972992683728   
1.748069588018149200   0.315333901984337    
1.767977753239725800   0.30725311763607843  
1.787885918461302500   0.2988584907226846   
1.807794083682879200   0.29015370340496466  
1.827702248904455900   0.28114257389033204  
1.847610414126032600   0.2718290547580127   
1.867518579347609200   0.2622172312253126   
1.887426744569186000   0.252311319355707    
1.907334909790762600   0.24211566420953523  
1.927243075012339300   0.23163473793811398  
1.947151240233916000   0.22087313782210385  
1.967059405455492600   0.2098355842549898   
1.986967570677069300   0.19852691867256103  
2.006875735898646000   0.18695210142929694  
2.026783901120223000   0.17511620962259156  
2.046692066341800000   0.1630244348657713   
2.066600231563376700   0.1506820810108812   
2.086508396784953600   0.13809456182224092  
2.106416562006530500   0.12526739860178768  
2.126324727228107400   0.11220621776725206  
2.146232892449684300   0.09891674838422408  
2.166141057671261000   0.08540481965319563  
2.186049222892838000   0.07167635835268214  
2.205957388114415000   0.057737386239539924 
2.225865553335992000   0.04359401740762486  
2.245773718557569000   0.029252455605949513 
2.265681883779145700   0.014718991517512995 
2.285590049000722600   1.2993980021782884e-16 
2.285590049000722600   1.2993980021782884e-16 
2.319217893432007000   0.029968661831124344 
2.352845737863291700   0.06060095467115173  
2.386473582294576000   0.09184313906951863  
2.420101426725860700   0.12364040561862355  
2.453729271157145200   0.15593697110815624  
2.487357115588429800   0.18867617638780124  
2.520984960019714300   0.22180058576664172  
2.554612804450999000   0.2552520877748764   
2.588240648882283300   0.2889719971110867   
2.621868493313568000   0.3229011575961947   
2.655496337744852400   0.356980045953503    
2.689124182176137000   0.3911488762327494   
2.722752026607421400   0.4253477046949769   
2.756379871038706000   0.4595165349742232   
2.790007715469990500   0.4935954233315315   
2.823635559901275000   0.5275245838166395   
2.857263404332559500   0.5612444931528502   
2.890891248763844000   0.5946959951610848   
2.924519093195128600   0.6278204045399249   
2.958146937626413000   0.66055960981957     
2.991774782057697600   0.6928561753091027   
3.025402626488982000   0.7246534418582078   
3.059030470920266700   0.7558956262565744   
3.092658315351551200   0.7865279190966019   
3.126286159782835700   0.8164965809277261   
3.159914004214120300   0.8457490365336753   
3.193541848645405000   0.8742339671672661   
3.227169693076689300   0.9019014005809216   
3.260797537507974000   0.9287027986949781   
3.294425381939258400   0.954591142749967    
3.328053226370543000   0.9795210157934974   
3.361681070801827400   1.003448682357023    
3.395308915233112000   1.0263321651827157   
3.428936759664396500   1.04813131886584     
3.462564604095681000   1.0688079002834332   
3.496192448526965500   1.088325635685739    
3.529820292958250000   1.1066502843326906   
3.563448137389534600   1.1237496985638042   
3.597075981820819000   1.1395938801960988   
3.630703826252103600   1.1541550331511017   
3.664331670683388000   1.1674076122186166   
3.697959515114672700   1.1793283678717026   
3.731587359545957000   1.1898963870542447   
3.765215203977241700   1.199093129869559    
3.798843048408526300   1.206902462105674    
3.832470892839811000   1.2133106835402176   
3.866098737271095300   1.218306551975266    
3.899726581702380000   1.2218813029599769   
3.933354426133664400   1.224028665166414    
3.966982270564949000   1.224744871391589    

