# k Energy [eV] 
# Emax = 1.224744871391589
# Emin = -1.224744871391589
# ef = 0.0

0.000000000000000000 -1.224744871391589  
0.062831853071795870 -1.2242076970918163 
0.125663706143591740 -1.222596881318471  
0.188495559215387600 -1.2199145463866692 
0.251327412287183470 -1.2161642326398274 
0.314159265358979300 -1.2113509032742888 
0.376991118430775150 -1.2054809512910194 
0.439822971502571000 -1.1985622087779506 
0.502654824574366800 -1.190603958793985  
0.565486677646162700 -1.1816169502005898 
0.628318530717958500 -1.171613415871449  
0.691150383789754400 -1.1606070948073655 
0.753982236861550200 -1.1486132587955535 
0.816814089933346000 -1.1356487443831944 
0.879645943005141900 -1.1217319910889856 
0.942477796076937700 -1.1068830869585924 
1.005309649148733700 -1.0911238227867013 
1.068141502220529600 -1.074477756587424  
1.130973355292325600 -1.0569702902053184 
1.193805208364121500 -1.0386287603324806 
1.256637061435917500 -1.0194825466464013 
1.319468914507713400 -0.99956320032464   
1.382300767579509400 -0.9789045968447674 
1.445132620651305300 -0.9575431177634786 
1.507964473723101300 -0.9355178671122263 
1.570796326794897200 -0.912870929175277  
1.633628179866693200 -0.8896476757573514 
1.696460032938489100 -0.8658971326263091 
1.759291886010285000 -0.8416724166460784 
1.822123739082081000 -0.8170312571887506 
1.884955592153877000 -0.7920366176825636 
1.947787445225673000 -0.7667574354884872 
2.010619298297468700 -0.7412695004449809 
2.073451151369264600 -0.7156564939029919 
2.136283004441060600 -0.6900112100640122 
2.199114857512856500 -0.6644369785552914 
2.261946710584652500 -0.6390492992204958 
2.324778563656448400 -0.6139776836722495 
2.387610416728244400 -0.5893676682561793 
2.450442269800040300 -0.5653829128559459 
2.513274122871836300 -0.5422072209189966 
2.576105975943632000 -0.5200461995489662 
2.638937829015428000 -0.49912811979566707
2.701769682087224000 -0.47970334411590987
2.764601535159020000 -0.46204149460970034
2.827433388230816000 -0.44642542020278253
2.890265241302612000 -0.43314111547421347
2.953097094374408000 -0.42246321281370075
3.015928947446204000 -0.4146366270085349 
3.078760800518000000 -0.4098562931660546 
3.141592653589796000 -0.408248290463863  

3.141592653589796000 -0.408248290463863  
3.190069036164504500 -0.4080692192709334 
3.238545418739213300 -0.4075320842386882 
3.287021801313922000 -0.406637120972305  
3.335498183888631000 -0.40538472203225107
3.383974566463339600 -0.4037754367620939 
3.432450949038048400 -0.40180997104754035
3.480927331612757000 -0.39948918700681196
3.529403714187466000 -0.39681410261249167
3.577880096762174700 -0.39378589124500735
3.626356479336883400 -0.39040588117794767
3.674832861911592000 -0.386675554995439  
3.723309244486301000 -0.38259654894183304
3.771785627061009700 -0.3781706522039974 
3.820262009635718500 -0.3733998061265186 
3.868738392210427300 -0.368286103360164  
3.917214774785136000 -0.36283178694397666
3.965691157359845000 -0.35703924932140335
4.014167539934553600 -0.35091103129089035
4.062643922509262000 -0.3444498208914057 
4.111120305083971000 -0.3376584522233754 
4.159596687658680000 -0.330539904205554  
4.208073070233389000 -0.3230972992683728 
4.256549452808097000 -0.315333901984337  
4.305025835382806000 -0.30725311763607843
4.353502217957515000 -0.2988584907226846 
4.401978600532224000 -0.29015370340496466
4.450454983106932000 -0.28114257389033204
4.498931365681641000 -0.2718290547580127 
4.547407748256350000 -0.2622172312253126 
4.595884130831059000 -0.252311319355707  
4.644360513405767500 -0.24211566420953523
4.692836895980476000 -0.23163473793811398
4.741313278555185000 -0.22087313782210385
4.789789661129894000 -0.2098355842549898 
4.838266043704603000 -0.19852691867256103
4.886742426279311000 -0.18695210142929694
4.935218808854020000 -0.17511620962259156
4.983695191428729000 -0.1630244348657713 
5.032171574003438000 -0.1506820810108812 
5.080647956578146000 -0.13809456182224092
5.129124339152855000 -0.12526739860178768
5.177600721727564000 -0.11220621776725206
5.226077104302273000 -0.09891674838422408
5.274553486876981400 -0.08540481965319563
5.323029869451690000 -0.07167635835268214
5.371506252026399000 -0.057737386239539924
5.419982634601108000 -0.04359401740762486
5.468459017175816500 -0.029252455605949513
5.516935399750525000 -0.014718991517512995
5.565411782325234000 -1.2993980021782884e-16

5.565411782325234000 -1.2993980021782884e-16
5.647295583766235000 -0.029968661831124344
5.729179385207236000 -0.06060095467115173
5.811063186648237000 -0.09184313906951863
5.892946988089238000 -0.12364040561862355
5.974830789530239000 -0.15593697110815624
6.056714590971240000 -0.18867617638780124
6.138598392412241000 -0.22180058576664172
6.220482193853242000 -0.2552520877748764 
6.302365995294243500 -0.2889719971110867 
6.384249796735244500 -0.3229011575961947 
6.466133598176246000 -0.356980045953503  
6.548017399617247000 -0.3911488762327494 
6.629901201058248000 -0.4253477046949769 
6.711785002499249000 -0.4595165349742232 
6.793668803940250000 -0.4935954233315315 
6.875552605381251000 -0.5275245838166395 
6.957436406822252000 -0.5612444931528502 
7.039320208263253000 -0.5946959951610848 
7.121204009704254000 -0.6278204045399249 
7.203087811145255000 -0.66055960981957   
7.284971612586256000 -0.6928561753091027 
7.366855414027257000 -0.7246534418582078 
7.448739215468258000 -0.7558956262565744 
7.530623016909259000 -0.7865279190966019 
7.612506818350260000 -0.8164965809277261 
7.694390619791261000 -0.8457490365336753 
7.776274421232262000 -0.8742339671672661 
7.858158222673263000 -0.9019014005809216 
7.940042024114264000 -0.9287027986949781 
8.021925825555265000 -0.954591142749967  
8.103809626996265000 -0.9795210157934974 
8.185693428437265000 -1.003448682357023  
8.267577229878265000 -1.0263321651827157 
8.349461031319265000 -1.04813131886584   
8.431344832760265000 -1.0688079002834332 
8.513228634201266000 -1.088325635685739  
8.595112435642266000 -1.1066502843326906 
8.676996237083266000 -1.1237496985638042 
8.758880038524266000 -1.1395938801960988 
8.840763839965266000 -1.1541550331511017 
8.922647641406266000 -1.1674076122186166 
9.004531442847266000 -1.1793283678717026 
9.086415244288267000 -1.1898963870542447 
9.168299045729267000 -1.199093129869559  
9.250182847170267000 -1.206902462105674  
9.332066648611267000 -1.2133106835402176 
9.413950450052267000 -1.218306551975266  
9.495834251493267000 -1.2218813029599769 
9.577718052934268000 -1.224028665166414  
9.659601854375268000 -1.224744871391589  

0.000000000000000000 1.224744871391589   
0.062831853071795870 1.2242076970918163  
0.125663706143591740 1.222596881318471   
0.188495559215387600 1.2199145463866692  
0.251327412287183470 1.2161642326398274  
0.314159265358979300 1.2113509032742888  
0.376991118430775150 1.2054809512910194  
0.439822971502571000 1.1985622087779506  
0.502654824574366800 1.190603958793985   
0.565486677646162700 1.1816169502005898  
0.628318530717958500 1.171613415871449   
0.691150383789754400 1.1606070948073655  
0.753982236861550200 1.1486132587955535  
0.816814089933346000 1.1356487443831944  
0.879645943005141900 1.1217319910889856  
0.942477796076937700 1.1068830869585924  
1.005309649148733700 1.0911238227867013  
1.068141502220529600 1.074477756587424   
1.130973355292325600 1.0569702902053184  
1.193805208364121500 1.0386287603324806  
1.256637061435917500 1.0194825466464013  
1.319468914507713400 0.99956320032464    
1.382300767579509400 0.9789045968447674  
1.445132620651305300 0.9575431177634786  
1.507964473723101300 0.9355178671122263  
1.570796326794897200 0.912870929175277   
1.633628179866693200 0.8896476757573514  
1.696460032938489100 0.8658971326263091  
1.759291886010285000 0.8416724166460784  
1.822123739082081000 0.8170312571887506  
1.884955592153877000 0.7920366176825636  
1.947787445225673000 0.7667574354884872  
2.010619298297468700 0.7412695004449809  
2.073451151369264600 0.7156564939029919  
2.136283004441060600 0.6900112100640122  
2.199114857512856500 0.6644369785552914  
2.261946710584652500 0.6390492992204958  
2.324778563656448400 0.6139776836722495  
2.387610416728244400 0.5893676682561793  
2.450442269800040300 0.5653829128559459  
2.513274122871836300 0.5422072209189966  
2.576105975943632000 0.5200461995489662  
2.638937829015428000 0.49912811979566707 
2.701769682087224000 0.47970334411590987 
2.764601535159020000 0.46204149460970034 
2.827433388230816000 0.44642542020278253 
2.890265241302612000 0.43314111547421347 
2.953097094374408000 0.42246321281370075 
3.015928947446204000 0.4146366270085349  
3.078760800518000000 0.4098562931660546  
3.141592653589796000 0.408248290463863   

3.141592653589796000 0.408248290463863   
3.190069036164504500 0.4080692192709334  
3.238545418739213300 0.4075320842386882  
3.287021801313922000 0.406637120972305   
3.335498183888631000 0.40538472203225107 
3.383974566463339600 0.4037754367620939  
3.432450949038048400 0.40180997104754035 
3.480927331612757000 0.39948918700681196 
3.529403714187466000 0.39681410261249167 
3.577880096762174700 0.39378589124500735 
3.626356479336883400 0.39040588117794767 
3.674832861911592000 0.386675554995439   
3.723309244486301000 0.38259654894183304 
3.771785627061009700 0.3781706522039974  
3.820262009635718500 0.3733998061265186  
3.868738392210427300 0.368286103360164   
3.917214774785136000 0.36283178694397666 
3.965691157359845000 0.35703924932140335 
4.014167539934553600 0.35091103129089035 
4.062643922509262000 0.3444498208914057  
4.111120305083971000 0.3376584522233754  
4.159596687658680000 0.330539904205554   
4.208073070233389000 0.3230972992683728  
4.256549452808097000 0.315333901984337   
4.305025835382806000 0.30725311763607843 
4.353502217957515000 0.2988584907226846  
4.401978600532224000 0.29015370340496466 
4.450454983106932000 0.28114257389033204 
4.498931365681641000 0.2718290547580127  
4.547407748256350000 0.2622172312253126  
4.595884130831059000 0.252311319355707   
4.644360513405767500 0.24211566420953523 
4.692836895980476000 0.23163473793811398 
4.741313278555185000 0.22087313782210385 
4.789789661129894000 0.2098355842549898  
4.838266043704603000 0.19852691867256103 
4.886742426279311000 0.18695210142929694 
4.935218808854020000 0.17511620962259156 
4.983695191428729000 0.1630244348657713  
5.032171574003438000 0.1506820810108812  
5.080647956578146000 0.13809456182224092 
5.129124339152855000 0.12526739860178768 
5.177600721727564000 0.11220621776725206 
5.226077104302273000 0.09891674838422408 
5.274553486876981400 0.08540481965319563 
5.323029869451690000 0.07167635835268214 
5.371506252026399000 0.057737386239539924
5.419982634601108000 0.04359401740762486 
5.468459017175816500 0.029252455605949513
5.516935399750525000 0.014718991517512995
5.565411782325234000 1.2993980021782884e-16

5.565411782325234000 1.2993980021782884e-16
5.647295583766235000 0.029968661831124344
5.729179385207236000 0.06060095467115173 
5.811063186648237000 0.09184313906951863 
5.892946988089238000 0.12364040561862355 
5.974830789530239000 0.15593697110815624 
6.056714590971240000 0.18867617638780124 
6.138598392412241000 0.22180058576664172 
6.220482193853242000 0.2552520877748764  
6.302365995294243500 0.2889719971110867  
6.384249796735244500 0.3229011575961947  
6.466133598176246000 0.356980045953503   
6.548017399617247000 0.3911488762327494  
6.629901201058248000 0.4253477046949769  
6.711785002499249000 0.4595165349742232  
6.793668803940250000 0.4935954233315315  
6.875552605381251000 0.5275245838166395  
6.957436406822252000 0.5612444931528502  
7.039320208263253000 0.5946959951610848  
7.121204009704254000 0.6278204045399249  
7.203087811145255000 0.66055960981957    
7.284971612586256000 0.6928561753091027  
7.366855414027257000 0.7246534418582078  
7.448739215468258000 0.7558956262565744  
7.530623016909259000 0.7865279190966019  
7.612506818350260000 0.8164965809277261  
7.694390619791261000 0.8457490365336753  
7.776274421232262000 0.8742339671672661  
7.858158222673263000 0.9019014005809216  
7.940042024114264000 0.9287027986949781  
8.021925825555265000 0.954591142749967   
8.103809626996265000 0.9795210157934974  
8.185693428437265000 1.003448682357023   
8.267577229878265000 1.0263321651827157  
8.349461031319265000 1.04813131886584    
8.431344832760265000 1.0688079002834332  
8.513228634201266000 1.088325635685739   
8.595112435642266000 1.1066502843326906  
8.676996237083266000 1.1237496985638042  
8.758880038524266000 1.1395938801960988  
8.840763839965266000 1.1541550331511017  
8.922647641406266000 1.1674076122186166  
9.004531442847266000 1.1793283678717026  
9.086415244288267000 1.1898963870542447  
9.168299045729267000 1.199093129869559   
9.250182847170267000 1.206902462105674   
9.332066648611267000 1.2133106835402176  
9.413950450052267000 1.218306551975266   
9.495834251493267000 1.2218813029599769  
9.577718052934268000 1.224028665166414   
9.659601854375268000 1.224744871391589   

